    #theta              beta_x             alpha_x              beta_y             alpha_y
     0.000000000        0.7406379483        0.1232742762E-03     4.154713988       -0.2664034338E-03
    0.1187500000        0.7407507164       -0.1245815757E-01     4.154723734       -0.7996313742E-03
    0.2375000000        0.7410935542       -0.2504182368E-01     4.154743116       -0.1320343158E-02
    0.3562500000        0.7416665203       -0.3762801947E-01     4.154771907       -0.1828745601E-02
    0.4750000000        0.7424696600       -0.5021385508E-01     4.154810041       -0.2342067579E-02
    0.5937500000        0.7435030707       -0.6280681977E-01     4.154857218       -0.2817524703E-02
    0.7125000000        0.7447669317       -0.7540725825E-01     4.154912746       -0.3254941276E-02
    0.8312500000        0.7462614372       -0.8801529073E-01     4.154975940       -0.3655302671E-02
    0.9500000000        0.7479867599       -0.1006272933         4.155046303       -0.4037960786E-02
     1.068750000        0.7499431405       -0.1132531508         4.155123019       -0.4348903392E-02
     1.187500000        0.7521309097       -0.1258916025         4.155204861       -0.4597239611E-02
     1.306250000        0.7545503251       -0.1385346796         4.155291088       -0.4826834747E-02
     1.425000000        0.7572017443       -0.1512000479         4.155380466       -0.4939886283E-02
     1.543750000        0.7600857057       -0.1638884515         4.155470849       -0.4935006443E-02
     1.662500000        0.7632025528       -0.1765764833         4.155561263       -0.4941203575E-02
     1.781250000        0.7665527500       -0.1892994397         4.155650127       -0.4763577484E-02
     1.900000000        0.7701371043       -0.2020579133         4.155734074       -0.4402205870E-02
     2.018750000        0.7739563864       -0.2148457881         4.155810065       -0.3892731814E-02
     2.137500000        0.7780111933       -0.2276486362         4.155876070       -0.3310249260E-02
     2.256250000        0.7823023408       -0.2405030760         4.155928957       -0.2459485517E-02
     2.375000000        0.7868308651       -0.2533946952         4.155964539       -0.1421225450E-02
     2.493750000        0.7915974750       -0.2663003070         4.155980469       -0.3156250724E-03
     2.612500000        0.7966032272       -0.2792790632         4.155972619        0.1171196895E-02
     2.731250000        0.8018497162       -0.2923281205         4.155934168        0.3018081497E-02
     2.850000000        0.8073383273       -0.3054252226         4.155859553        0.5108042582E-02
     2.968750000        0.8130701247       -0.3185549802         4.155744928        0.7370213939E-02
     3.087500000        0.8190466460       -0.3317817188         4.155584091        0.1013126726E-01
     3.206250000        0.8252697191       -0.3450696551         4.155369528        0.1320538690E-01
     3.325000000        0.8317407543       -0.3584059309         4.155095931        0.1653753468E-01
     3.443750000        0.8384620708       -0.3718987652         4.154753488        0.2067032256E-01
     3.562500000        0.8454366295       -0.3855055756         4.154329420        0.2538110929E-01
     3.681250000        0.8526669989       -0.3992221928         4.153813124        0.3065308083E-01
     3.800000000        0.8601570362       -0.4131881133         4.153187852        0.3716644705E-01
     3.918750000        0.8679120225       -0.4274126345         4.152430343        0.4494257614E-01
     4.037500000        0.8759372054       -0.4418770529         4.151518069        0.5387370097E-01
     4.156250000        0.8842383371       -0.4566486194         4.150426680        0.6425772521E-01
     4.275000000        0.8928222401       -0.4717691404         4.149127504        0.7625584670E-01
     4.393750000        0.9016963556       -0.4872565235         4.147589951        0.8990400281E-01
     4.512500000        0.9108679550       -0.5030668937         4.145785296        0.1049528975
     4.631250000        0.9203440570       -0.5192089837         4.143687020        0.1214021342
     4.750000000        0.9301333767       -0.5358494997         4.141262215        0.1399274070
     4.835750000        0.9374021742       -0.5481016457         4.139289705        0.1542162583
     4.921500000        0.9448420867       -0.5605343139         4.137119498        0.1691652726
     5.007250000        0.9524562180       -0.5731813698         4.134741557        0.1848950952
     5.093000000        0.9602479112       -0.5860413042         4.132145255        0.2013673168
     5.178750000        0.9682205278       -0.5991150692         4.129320374        0.2185529581
     5.264500000        0.9763773983       -0.6123938376         4.126257328        0.2363807655
     5.350250000        0.9847216837       -0.6258579525         4.122947746        0.2547354762
     5.436000000        0.9932557529       -0.6394061397         4.119387033        0.2731664888
     5.521750000         1.001981893       -0.6531250504         4.115571324        0.2920113693
     5.607500000         1.010902945       -0.6670070339         4.111494842        0.3112113311
     5.693250000         1.020021700       -0.6810487883         4.107152440        0.3307266232
     5.779000000         1.029340941       -0.6952491531         4.102539411        0.3505268852
     5.864750000         1.038863467       -0.7096087088         4.097651372        0.3705893195
     5.950500000         1.048592459       -0.7241797180         4.092482853        0.3910923930
     6.036250000         1.058530766       -0.7388570663         4.087030126        0.4115955842
     6.122000000         1.068680583       -0.7536471250         4.081292349        0.4321103850
     6.207750000         1.079044404       -0.7685835379         4.075267813        0.4527487878
     6.293500000         1.089625811       -0.7837895347         4.068951054        0.4739459046
     6.379250000         1.100428384       -0.7991370825         4.062337086        0.4951912958
     6.465000000         1.111455488       -0.8147194695         4.055422165        0.5168076875
     6.550750000         1.122711887       -0.8306440922         4.048197887        0.5391483665
     6.636500000         1.134202184       -0.8467751796         4.040657047        0.5616783819
     6.722250000         1.145930064       -0.8631110206         4.032796268        0.5843674177
     6.808000000         1.157900646       -0.8798584395         4.024607633        0.6079016327
     6.893750000         1.170120690       -0.8970454619         4.016078228        0.6323152276
     6.979500000         1.182595821       -0.9144735436         4.007199879        0.6568765926
     7.065250000         1.195332411       -0.9324461553         3.997962616        0.6825689307
     7.151000000         1.208339461       -0.9510358652         3.988348541        0.7095498699
     7.236750000         1.221624847       -0.9700016058         3.978344673        0.7369402473
     7.322500000         1.235196261       -0.9895565562         3.967939734        0.7653636185
     7.408250000         1.249064103        -1.009875037         3.957114869        0.7952826583
     7.494000000         1.263240860        -1.031079799         3.945846068        0.8269661717
     7.579750000         1.277741536        -1.053406966         3.934103240        0.8610066989
     7.665500000         1.292584001        -1.077028755         3.921849595        0.8977590561
     7.751250000         1.307786921        -1.101882849         3.909048385        0.9368456211
     7.837000000         1.323364496        -1.127388693         3.895678634        0.9763740896
     7.922750000         1.339329736        -1.153964817         3.881724812         1.017453686
     8.008500000         1.355701453        -1.182027534         3.867156411         1.061117032
     8.094250000         1.372501053        -1.211534425         3.851937963         1.107037913
     8.180000000         1.389750115        -1.242560665         3.836036208         1.155227885
     8.222500000         1.398472021        -1.258460191         3.827893112         1.179780934
     8.265000000         1.407312210        -1.274752084         3.819571222         1.204870085
     8.307500000         1.416272297        -1.291097017         3.811069915         1.229561094
     8.350000000         1.425354671        -1.308060357         3.802386567         1.255362334
     8.392500000         1.434561875        -1.325120803         3.793518245         1.280858312
     8.435000000         1.443896494        -1.342816649         3.784462037         1.307459982
     8.477500000         1.453360918        -1.360553261         3.775215649         1.333584703
     8.520000000         1.462956752        -1.378706789         3.765778924         1.360207125
     8.562500000         1.472687228        -1.397368872         3.756147570         1.387538106
     8.605000000         1.482554084        -1.416025037         3.746321225         1.414252965
     8.647500000         1.492558487        -1.435031566         3.736301013         1.441255659
     8.690000000         1.502701633        -1.454043254         3.726087958         1.467677968
     8.732500000         1.512986266        -1.473852998         3.715679261         1.495480006
     8.775000000         1.523415058        -1.493648500         3.705072363         1.522643695
     8.817500000         1.533988106        -1.513516695         3.694271018         1.549395216
     8.860000000         1.544706209        -1.533575930         3.683277177         1.576028414
     8.902500000         1.555569583        -1.553545195         3.672094108         1.601883547
     8.945000000         1.566579429        -1.573993084         3.660722653         1.628314498
     8.987500000         1.577736883        -1.594335133         3.649163732         1.653954897
     9.030000000         1.589042309        -1.614943928         3.637419994         1.679685103
     9.072500000         1.600496097        -1.635458148         3.625493893         1.704689683
     9.115000000         1.612097284        -1.655862424         3.613390801         1.728961873
     9.157500000         1.623845196        -1.676258595         3.601115235         1.752757863
     9.200000000         1.635738820        -1.696453436         3.588672253         1.775676275
     9.242500000         1.647777414        -1.716723616         3.576066091         1.798355282
     9.285000000         1.659959963        -1.736718335         3.563301359         1.820060576
     9.327500000         1.672284046        -1.756396360         3.550385430         1.840746666
     9.370000000         1.684747076        -1.775755016         3.537325721         1.860452490
     9.412500000         1.697346340        -1.794766364         3.524129572         1.879165002
     9.455000000         1.710078513        -1.813287074         3.510805264         1.896635066
     9.497500000         1.722940174        -1.831438088         3.497360903         1.913163952
     9.540000000         1.735925926        -1.848538732         3.483808215         1.927428179
     9.582500000         1.749030231        -1.865232523         3.470158774         1.940791508
     9.625000000         1.762248649        -1.881187737         3.456421483         1.952649993
     9.667500000         1.775575954        -1.896514154         3.442606394         1.963279967
     9.710000000         1.789007542        -1.911278965         3.428721923         1.972869279
     9.752500000         1.802534035        -1.924055921         3.414785242         1.978746921
     9.795000000         1.816146052        -1.936270301         3.400813001         1.983716452
     9.837500000         1.829837401        -1.947395387         3.386815245         1.986847816
     9.880000000         1.843602073        -1.958009284         3.372801282         1.989273375
     10.01707317         1.888369090        -1.982454832         3.327690473         1.981454319
     10.15414634         1.933534135        -1.997156674         3.282954268         1.960504844
     10.29121951         1.978815858        -1.997442197         3.238969868         1.919971038
     10.42829268         2.023950321        -1.989336155         3.196055171         1.871137118
     10.56536585         2.068745464        -1.972863596         3.154390885         1.814608792
     10.70243902         2.113025991        -1.949290172         3.114121813         1.752749545
     10.83951220         2.156657979        -1.920861674         3.075324913         1.689060486
     10.97658537         2.199551008        -1.889068561         3.038013203         1.625634798
     11.11365854         2.241625048        -1.853265832         3.002186557         1.561532833
     11.25073171         2.282808208        -1.814780261         2.967836313         1.498426684
     11.38780488         2.323039139        -1.773174758         2.934942753         1.435636925
     11.52487805         2.362257118        -1.728920899         2.903488419         1.373645892
     11.66195122         2.400408810        -1.682185521         2.873449513         1.312551897
     11.79902439         2.437443379        -1.633011533         2.844802209         1.252277614
     11.93609756         2.473313480        -1.581660630         2.817521658         1.193009888
     12.07317073         2.507972155        -1.527898283         2.791585509         1.134360030
     12.21024390         2.541370312        -1.471765417         2.766976642         1.076265520
     12.34731707         2.573461630        -1.413468971         2.743677558         1.018841130
     12.48439024         2.604204203        -1.353199915         2.721668776        0.9621695570
     12.62146341         2.633559468        -1.291071530         2.700930228        0.9062407771
     12.75853659         2.661490057        -1.227083666         2.681443621        0.8509245861
     12.89560976         2.687958881        -1.161269076         2.663193309        0.7961313046
     13.03268293         2.712930643        -1.093766631         2.646164713        0.7418725436
     13.16975610         2.736373158        -1.024729142         2.630343125        0.6881664906
     13.30682927         2.758257922       -0.9543492534         2.615713234        0.6350672346
     13.44390244         2.778558588       -0.8826436564         2.602260671        0.5824542505
     13.58097561         2.797250139       -0.8097322268         2.589972830        0.5303056197
     13.71804878         2.814308320       -0.7355808714         2.578839333        0.4784591973
     13.85512195         2.829709225       -0.6602737797         2.568852382        0.4268596516
     13.99219512         2.843430531       -0.5838895855         2.560005631        0.3754475925
     14.12926829         2.855451430       -0.5065074137         2.552294222        0.3241633116
     14.26634146         2.865753174       -0.4282561093         2.545714338        0.2729882599
     14.40341463         2.874319762       -0.3492786658         2.540262611        0.2219164053
     14.54048780         2.881137974       -0.2697074542         2.535936126        0.1709285376
     14.67756098         2.886197288       -0.1896786120         2.532732570        0.1200053569
     14.81463415         2.889490091       -0.1093448441         2.530650035        0.6914511634E-01
     14.95170732         2.891011613       -0.2883620343E-01     2.529687099        0.1832170153E-01
     15.08878049         2.890759527        0.5173050614E-01     2.529843223       -0.3250318385E-01
     15.22585366         2.888734100        0.1322111190         2.531118595       -0.8334149648E-01
     15.36292683         2.884938532        0.2124584140         2.533513847       -0.1342055257
     15.50000000         2.879378446        0.2923744996         2.537030502       -0.1851478869
     15.50000000         2.879378446        0.2923744996         2.537030502       -0.1851478869
     15.61846154         2.873158090        0.3610444788         2.540974732       -0.2292287124
     15.73692308         2.865633179        0.4292513013         2.545759677       -0.2733702118
     15.85538462         2.856812471        0.4969102213         2.551387170       -0.3175850243
     15.97384615         2.846706150        0.5639413610         2.557859409       -0.3618880583
     16.09230769         2.835326035        0.6302385403         2.565178750       -0.4062708553
     16.21076923         2.822685204        0.6957616065         2.573348037       -0.4507827612
     16.32923077         2.808797482        0.7604592725         2.582371041       -0.4954611677
     16.44769231         2.793677743        0.8242596726         2.592252177       -0.5403259291
     16.56615385         2.777341574        0.8871477547         2.602996837       -0.5854486186
     16.68461538         2.759804597        0.9491232624         2.614611993       -0.6309129510
     16.80307692         2.741083038         1.010112307         2.627105696       -0.6767364313
     16.92153846         2.721193890         1.070097687         2.640486949       -0.7229906569
     17.04000000         2.700154940         1.129004350         2.654765688       -0.7696894016
     17.15846154         2.677985906         1.186696788         2.669951646       -0.8167862231
     17.27692308         2.654708571         1.243086707         2.686054188       -0.8642774242
     17.39538462         2.630346219         1.298099251         2.703082811       -0.9121686089
     17.51384615         2.604922935         1.351719704         2.721047796       -0.9605243973
     17.63230769         2.578462866         1.403951643         2.739961003        -1.009432655
     17.75076923         2.550990745         1.454726558         2.759835368        -1.058905085
     17.86923077         2.522532857         1.503948883         2.780683860        -1.108920349
     17.98769231         2.493118246         1.551426459         2.802518066        -1.159343509
     18.10615385         2.462778333         1.597103752         2.825348460        -1.210182055
     18.22461538         2.431544441         1.641048082         2.849187132        -1.261584507
     18.34307692         2.399446198         1.683370292         2.874049722        -1.313758475
     18.46153846         2.366513944         1.723889826         2.899952724        -1.366570336
     18.58000000         2.332780572         1.762528953         2.926911365        -1.420011125
     18.69846154         2.298280808         1.799183999         2.954940304        -1.474019396
     18.81692308         2.263054945         1.833396328         2.984048698        -1.528077180
     18.93538462         2.227141302         1.865839311         3.014249938        -1.583139046
     19.05384615         2.190577027         1.895983009         3.045560760        -1.638583227
     19.17230769         2.153411502         1.923129202         3.077983455        -1.693548303
     19.29076923         2.115697380         1.947669621         3.111517112        -1.748583086
     19.40923077         2.077496445         1.968325252         3.146148261        -1.801857839
     19.52769231         2.038885228         1.984927800         3.181842534        -1.853113538
     19.64615385         1.999950758         1.996664346         3.218549297        -1.901011554
     19.76461538         1.960834029         1.998970417         3.256128681        -1.937847366
     19.88307692         1.921707651         1.993298164         3.294379412        -1.965253040
     20.00153846         1.882728770         1.979950972         3.333112005        -1.982986265
     20.12000000         1.844057496         1.958492496         3.372116280        -1.989369628
     20.16250000         1.830289414         1.947876813         3.386130942        -1.986946878
